#Acq. time (s)=	1
#Accumulations=	30
#Range (cm-¹)=	200...1800
#Windows=	2
#Auto scanning=	Off
#Autofocus=	Off
#AutoExposure=	Off
#Spike filter=	Multiple accum.
#Delay time (s)=	0
#Binning=	1
#Readout mode=	Signal
#DeNoise=	Off
#ICS correction=	Off
#Dark correction=	Off
#Inst. Process=	Off
#Detector Gain=	Best Dynamic Range
#Detector ADC=	45 kHz       
#Detector temperature (°C)=	-60.16
#Instrument=	XploRA
#Detector=	Syncerity
#Objective=	x10
#Grating=	1200
#Filter=	100%
#Laser (nm)=	785
#Slit=	100
#Hole=	300
#StageXY=	Marzhauser
#StageZ=	Marzhauser
#X (µm)=	0
#Y (µm)=	0
#Z (µm)=	0
#Full time(mm:ss)=	1:17
#Project=	
#Sample=	
#Site=	
#Title=	0_13
#Remark=	
#Date=	28.06.2024 13:53
#Acquired=	28.06.2024 13:53:58
#AxisType[0]=Intens
#AxisUnit[0]=Cnt
#AxisType[1]=Spectr
#AxisUnit[1]=1/cm
200.052	82.5862
201.312	77
202.571	84.0345
203.83	83.3448
205.088	82.3103
206.346	84.5172
207.604	81.4138
208.862	85.2069
210.119	82.2414
211.376	82.8621
212.633	80.3793
213.889	82.2414
215.145	81.8966
216.401	82.5172
217.656	83.1379
218.91	83.9655
220.166	83.8276
221.42	83.6207
222.674	84.3793
223.928	83.1379
225.182	83.6207
226.434	83.3448
227.687	85.4828
228.94	85.3448
230.191	79
231.444	85.6897
232.695	82.931
233.946	85.8276
235.197	84.1034
236.447	84.3793
237.698	86.0345
238.948	82.3103
240.198	87.1379
241.447	90.8621
242.695	90.5862
243.944	90.0345
245.193	89.1379
246.441	91.4138
247.688	92.1034
248.936	88.7931
250.182	91.069
251.43	92.7241
252.676	93.2759
253.922	93.8965
255.167	93.2759
256.413	92.0345
257.658	90.6552
258.903	93.2759
260.147	91.8965
261.392	91.5517
262.636	93.2759
263.879	93.069
265.122	89.4828
266.365	90.5862
267.608	90.931
268.85	91.4827
270.092	91.3448
271.334	89.1379
272.575	89.1379
273.816	89.4828
275.057	89.8966
276.297	88.7931
277.538	92.4483
278.777	87.8966
280.016	89.4138
281.256	90.5173
282.494	89.4828
283.733	87.8276
284.971	90.0345
286.209	92.931
287.447	91.4828
288.684	90.4483
289.921	91
291.157	86.931
292.394	91.8276
293.63	89.3448
294.865	90.5862
296.1	90.5172
297.335	90.4483
298.57	85.4138
299.804	90.6552
301.038	92.6552
302.271	93.2759
303.506	91.9655
304.739	89.6207
305.971	88.7931
307.204	87.4828
308.436	87.3448
309.668	82.3103
310.899	83.8276
312.13	84.1034
313.361	79.8966
314.592	80.7931
315.822	81.069
317.051	77.2069
318.282	78.6552
319.511	77.7586
320.74	77.8276
321.968	80.3793
323.196	80.2414
324.425	79.4138
325.652	77.9655
326.88	77.2759
328.107	80.7241
329.333	76.5862
330.56	79.6207
331.786	75.8276
333.012	78.4483
334.238	77.4138
335.463	76.4483
336.688	76.3793
337.913	79
339.137	76.5173
340.361	75.3448
341.584	77.4827
342.807	74.7931
344.031	76.1724
345.254	74.6552
346.475	75.4138
347.698	72.5172
348.919	79
350.14	77
351.361	75.6897
352.583	75.4828
353.803	77.3448
355.023	75.4138
356.243	76.7241
357.462	74.931
358.682	77.3448
359.901	77.6897
361.119	76.3103
362.337	77.3448
363.555	75.6897
364.773	79.3448
365.99	80.2414
367.207	78.3793
368.424	84.1034
369.64	85.5517
370.856	89.5517
372.072	89.4828
373.288	95.069
374.503	97.6897
375.717	99.4828
376.932	104.31
378.146	100.793
379.36	107.897
380.574	107.552
381.787	109.069
382.999	108.862
384.212	108.379
385.424	109.345
386.636	106.517
387.848	108.034
389.06	106.517
390.271	103
391.481	103.069
392.692	103.966
393.902	102.448
395.112	102.379
396.322	103.483
397.531	106.793
398.739	106.034
399.948	106.793
401.156	105.276
402.364	107.828
403.571	106.931
404.779	108.172
405.986	110.31
407.192	112.931
408.399	115.345
409.605	114.517
410.81	119.621
412.016	116.034
413.222	115.759
414.426	115.345
415.63	115.345
416.834	111.828
418.038	107.621
419.242	105.276
420.445	102.517
421.648	98.931
422.85	96.5172
424.053	96.1724
425.255	97.3448
426.457	92.8621
427.658	94.3793
428.859	92.931
430.06	92.0345
431.26	91.9655
432.461	91.2069
433.66	91.8276
434.86	90.2414
436.058	94.5173
437.258	91.1379
438.456	89.8966
439.654	91.6207
440.853	93.8965
442.05	90.0345
443.247	91.3448
444.444	89.5517
445.64	90.931
446.837	89.2069
448.033	91.6207
449.229	90.3793
450.424	89
451.619	91.6897
452.815	88.931
454.009	88.3793
455.203	87.2069
456.397	90.2414
457.59	88.0345
458.784	89.8966
459.977	86.3793
461.169	92.931
462.361	92.3103
463.554	93.6207
464.745	98.7931
465.936	101.276
467.128	108.724
468.318	111.138
469.509	115.621
470.699	120.586
471.889	123.966
473.078	132.724
474.268	135.552
475.456	140.448
476.645	140.655
477.833	145.621
479.021	148.517
480.209	154.379
481.396	148.172
482.583	151.69
483.77	153
484.956	151.828
486.142	149
487.328	145.621
488.514	143.897
489.699	138.034
490.884	133.621
492.068	131.965
493.253	127.69
494.436	127.759
495.62	122.862
496.803	119.69
497.986	118.241
499.169	115.897
500.351	118.517
501.534	119.828
502.715	122.862
503.897	120.931
505.078	123.138
506.259	122.931
507.439	124.931
508.619	127.897
509.8	126.241
510.98	129.828
512.158	134.103
513.337	133.483
514.516	139.621
515.695	145.276
516.872	147.483
518.05	156.172
519.227	159.414
520.405	164.379
521.582	170.241
522.758	167
523.934	169.138
525.11	167.138
526.286	154.172
527.461	151.138
528.636	141.207
529.811	133.207
530.985	121.552
532.159	116.034
533.333	110.793
534.506	99.3448
535.679	98.3793
536.852	96.1724
538.024	91.1379
539.197	88.2414
540.369	86.7931
541.541	86.2414
542.711	82.7241
543.883	82.7931
545.053	81.1379
546.223	79.7586
547.394	80.4483
548.564	79.8276
549.733	76.6552
550.902	77.069
552.071	74.1035
553.239	74.931
554.407	73.2759
555.576	71.1379
556.743	68.7241
557.91	70.2414
559.077	65.8965
560.244	64.8621
561.41	71.2069
562.576	65.069
563.742	67.6207
564.907	67.1379
566.073	66.4483
567.237	64.2414
568.402	62.7241
569.566	61.2759
570.73	58.0345
571.893	62.2414
573.057	62.3103
574.219	62.3103
575.382	59.3448
576.545	61
577.707	61.2069
578.868	59.5517
580.03	61.2069
581.191	58.5172
582.352	59.1379
583.512	57.2069
584.673	57.5517
585.833	56.7241
586.992	56.4483
588.151	57.1379
589.311	56.3793
590.469	55.8965
591.627	56.5172
592.786	54.931
593.943	56.1724
595.101	58.3793
596.258	54.931
597.414	59.6207
598.571	56.6552
599.727	55.6897
600.883	56.8621
602.039	57.069
603.194	55.3448
604.349	58.6552
605.504	58.2414
606.658	55.2759
607.812	57.1379
608.966	55.8965
610.12	57.1379
611.273	56.1724
612.426	57
613.578	55.2759
614.731	56.6552
615.882	54.931
617.034	55.4138
618.185	58.1035
619.337	55.4138
620.487	54.5862
621.637	52.1724
622.787	54.7241
623.937	53.2069
625.087	54.4483
626.236	56.5172
627.385	53.7586
628.533	55.8965
629.682	56.4483
630.83	56.7241
631.977	54.5862
633.125	55.5517
634.272	52.7931
635.419	55.8276
636.565	55.3448
637.711	56.2414
638.857	54.8621
640.003	55.8965
641.148	55.9655
642.293	58.1035
643.437	55.7586
644.582	59.9655
645.725	59.5517
646.869	58.1724
648.013	59.2759
649.156	61.6897
650.299	61.8276
651.442	62.8621
652.583	60.7931
653.726	61.8965
654.867	63.2069
656.008	66.6552
657.149	63.5517
658.29	67.4827
659.43	64.931
660.57	65.8966
661.71	67.069
662.85	68.3103
663.989	65.4138
665.128	67.9655
666.266	68.0345
667.404	68.5173
668.542	69.5517
669.68	67.6896
670.817	71.3448
671.954	72.4483
673.091	71.2759
674.227	68.8621
675.364	70.5862
676.499	71.4828
677.635	67.2759
678.77	66.1724
679.905	65.6897
681.039	64.5173
682.174	63.8276
683.308	64.4483
684.442	60.8621
685.575	58.4483
686.708	55.9655
687.841	56.0345
688.974	56.1724
690.106	57.1379
691.237	54.3793
692.369	54.4483
693.5	54.7931
694.631	53.8276
695.762	49.4138
696.892	53.6897
698.023	53.2759
699.152	52.6552
700.282	50.3103
701.411	53
702.54	50.2414
703.668	49.6207
704.797	51.5517
705.925	51
707.052	50.3103
708.18	50.7241
709.306	49.8276
710.433	51.2069
711.56	50.6552
712.686	49.6207
713.811	51.3448
714.937	51.6207
716.062	49.8965
717.187	48.4483
718.312	51.4828
719.436	49.6207
720.561	47.7586
721.684	49.2759
722.807	49.2069
723.931	49
725.054	48.2414
726.176	48.8621
727.298	47.2759
728.42	49.3448
729.542	50.0345
730.663	49.6207
731.784	48.2414
732.905	48.4483
734.025	47.6897
735.145	46.0345
736.265	48.5862
737.384	47.2069
738.504	48.0345
739.623	47
740.741	47.4828
741.86	49
742.977	49.2069
744.096	47
745.213	47.1379
746.33	48.0345
747.447	45.8276
748.563	49
749.679	48.2414
750.795	48.3103
751.911	48.1034
753.026	48.7241
754.141	49.2069
755.256	48.4483
756.371	48.7241
757.485	48.4483
758.599	48.7241
759.711	49.2069
760.825	49.4138
761.938	48.1724
763.05	53.069
764.163	52.2414
765.275	50.7241
766.386	51.4138
767.498	52.931
768.609	53.9655
769.72	53.9655
770.831	52.0345
771.94	54.3103
773.051	55.3448
774.16	53.7586
775.269	54.2414
776.379	53.4138
777.487	55.1379
778.596	55.1379
779.704	56.2414
780.811	57.3448
781.919	57.6897
783.026	57.4828
784.133	58.5172
785.239	61.2069
786.346	58.6552
787.452	64.1034
788.558	62.7931
789.663	65
790.768	71.2759
791.873	72.4483
792.978	79.5517
794.081	83.4138
795.185	93.069
796.289	102.793
797.393	111.207
798.496	129.621
799.598	141
800.701	153.828
801.802	163.69
802.905	169.897
804.006	170.034
805.107	167.483
806.208	157.345
807.309	151.483
808.409	141.345
809.509	135.069
810.609	124.517
811.709	125.414
812.807	120.241
813.907	117.345
815.005	122.724
816.104	121.966
817.201	123.897
818.299	122.172
819.396	124.862
820.494	124.448
821.59	123.621
822.687	123.966
823.783	123.621
824.879	125
825.974	128.517
827.069	136.31
828.164	144.172
829.259	153.828
830.353	169.759
831.448	192.586
832.542	217.897
833.635	248.448
834.729	275.483
835.821	310.862
836.914	332.172
838.006	349.759
839.098	374.172
840.19	374.655
841.281	366.724
842.372	356.517
843.463	340.862
844.553	315.207
845.643	303.897
846.734	277.69
847.824	255.897
848.913	237.207
850.001	220.034
851.09	203.552
852.179	187.966
853.267	177.414
854.355	165.276
855.443	157.276
856.53	149.414
857.617	139.414
858.703	134.448
859.79	124.655
860.876	121.69
861.961	112.586
863.047	111.828
864.132	104.241
865.217	102.931
866.301	101.414
867.386	100.793
868.47	93.1379
869.554	91.4827
870.637	88.7241
871.72	84.0345
872.803	80.931
873.886	75.7586
874.968	75.1379
876.05	70.2414
877.132	67.2759
878.213	65.069
879.294	61.069
880.375	62.1724
881.455	56.4483
882.535	55.2069
883.615	56.8621
884.694	55.3448
885.774	54.0345
886.853	54.7241
887.932	53.6897
889.01	54.3103
890.089	56.1034
891.166	52.2414
892.243	54.8621
893.321	53.9655
894.398	55.3448
895.474	55.6207
896.551	59.3448
897.627	58.1724
898.702	56.5862
899.778	63
900.853	64.931
901.928	63.6897
903.002	68.3103
904.077	71.5517
905.151	71
906.224	78.7931
907.298	77.6897
908.37	82.7241
909.444	86.4483
910.516	90.1724
911.589	89.4828
912.66	97.9655
913.732	102.31
914.803	105.828
915.874	110.103
916.945	116.586
918.015	121.138
919.086	119.552
920.155	124.172
921.225	125.414
922.294	127.276
923.363	128.035
924.432	124.586
925.5	124.172
926.569	120.448
927.636	124.034
928.704	115.207
929.771	112.862
930.838	104.103
931.904	99.9655
932.971	98.5172
934.037	91.3448
935.103	87.9655
936.168	82.0345
937.233	81.6207
938.298	74.6552
939.362	73.2759
940.427	70.8621
941.491	71.2069
942.554	68.1034
943.618	70.1724
944.681	69.9655
945.744	67.6207
946.807	71.1379
947.869	69
948.931	66.3793
949.992	65.2759
951.054	60.2414
952.115	59
953.176	58.931
954.236	55.069
955.296	53.2069
956.356	54.4483
957.416	52.3793
958.475	53.2069
959.534	51.2759
960.593	51.6207
961.651	52.8621
962.709	51.2069
963.767	51.8276
964.824	53.5517
965.881	53.8965
966.939	56.5172
967.996	56.7931
969.052	56.7931
970.108	61
971.164	57.6896
972.219	59.8966
973.275	61.5517
974.329	60.0345
975.384	64.931
976.438	62.7931
977.492	63.6207
978.546	60.4483
979.6	62.7931
980.653	61.8965
981.706	65.7586
982.758	62.6552
983.811	64.1035
984.863	66.7241
985.914	66.1035
986.966	69.3448
988.017	70.1724
989.068	73.4138
990.119	70.7241
991.169	73.4138
992.219	69.4827
993.268	67.4138
994.318	68.5862
995.367	65.3448
996.416	63.5517
997.464	61.4828
998.513	58.4483
999.56	56.1034
1000.61	58.1724
1001.66	54.4483
1002.7	57.069
1003.75	53.3448
1004.8	54.0345
1005.84	55.8276
1006.89	54.3793
1007.93	53.6897
1008.98	53.3448
1010.02	56.7931
1011.07	55.2069
1012.11	58.5172
1013.16	58.7931
1014.2	57.2069
1015.25	61.5517
1016.29	62.5862
1017.33	59.069
1018.37	66.0345
1019.42	66.3103
1020.46	63.6207
1021.5	69.6897
1022.54	71.069
1023.58	75.1379
1024.62	75.5517
1025.66	78.931
1026.71	81.3448
1027.75	86.6552
1028.79	87.6897
1029.82	90.5172
1030.86	95
1031.9	99.4138
1032.94	101
1033.98	109.276
1035.02	113.552
1036.06	118.724
1037.09	121.828
1038.13	128.034
1039.17	127.483
1040.2	130.655
1041.24	135.897
1042.28	142.448
1043.31	140.655
1044.35	143.069
1045.38	150.724
1046.42	147.621
1047.45	152.241
1048.49	153.414
1049.52	150.31
1050.55	153.276
1051.59	153.069
1052.62	153.552
1053.65	156.448
1054.69	153.069
1055.72	152.724
1056.75	153.483
1057.78	149.345
1058.81	147.483
1059.85	149
1060.88	150.241
1061.91	147.69
1062.94	151.345
1063.97	146.034
1065	151.207
1066.03	150.517
1067.06	153.552
1068.08	155.276
1069.11	152.655
1070.14	155.414
1071.17	156.448
1072.2	160.034
1073.22	159.207
1074.25	163.276
1075.28	161.552
1076.31	165.897
1077.33	166.655
1078.36	165.897
1079.38	167.69
1080.41	167.207
1081.43	166.379
1082.46	168.724
1083.48	169.966
1084.51	165.966
1085.53	165.138
1086.55	162.379
1087.58	161.207
1088.6	159.138
1089.62	158.655
1090.65	156.517
1091.67	154.172
1092.69	156.379
1093.71	149.069
1094.73	146.241
1095.76	145.966
1096.78	149.621
1097.8	148.517
1098.82	145.552
1099.84	142.379
1100.86	142.31
1101.88	145.483
1102.89	143.897
1103.91	141.207
1104.93	146.241
1105.95	148.448
1106.97	147.69
1107.99	148.655
1109	146.448
1110.02	149.138
1111.04	146.931
1112.05	145.759
1113.07	145.414
1114.09	143.276
1115.1	145.483
1116.12	139.966
1117.13	139.966
1118.15	134.655
1119.16	129
1120.18	129.897
1121.19	126.586
1122.2	122.034
1123.22	122.241
1124.23	118.448
1125.24	116.448
1126.26	112.931
1127.27	114.172
1128.28	114.448
1129.29	114.931
1130.3	112.241
1131.31	114.034
1132.32	112.31
1133.34	115.897
1134.34	114.31
1135.36	114.241
1136.36	113.483
1137.37	115.69
1138.38	114.517
1139.39	115.621
1140.4	117
1141.41	112.724
1142.42	111.897
1143.42	111.621
1144.43	110.862
1145.44	106.241
1146.45	108.724
1147.45	105.69
1148.46	103.966
1149.46	101.69
1150.47	98.5862
1151.48	96.7241
1152.48	98.0345
1153.49	97.6207
1154.49	93.6897
1155.49	92.0345
1156.5	93.4828
1157.5	90.7241
1158.51	92.5862
1159.51	91.4828
1160.51	91.4138
1161.51	92.4483
1162.52	92.1724
1163.52	85.8276
1164.52	93.3448
1165.52	94.4483
1166.52	93
1167.52	93.8276
1168.52	93.7586
1169.52	91.4828
1170.52	93.5517
1171.52	91.8276
1172.52	91
1173.52	92.8621
1174.52	92.5862
1175.52	93.9655
1176.52	96.3793
1177.52	99.2069
1178.51	98.7241
1179.51	99.8966
1180.51	100.724
1181.51	99.2069
1182.5	99.2069
1183.5	98.7931
1184.49	101.759
1185.49	101.828
1186.49	101.828
1187.48	100.31
1188.48	105.069
1189.47	103.828
1190.47	105.276
1191.46	105.621
1192.45	106.448
1193.45	108.793
1194.44	107
1195.43	109.138
1196.43	111.69
1197.42	112.586
1198.41	113.69
1199.4	114.931
1200.39	116.655
1201.38	117.069
1202.38	116.931
1203.37	115.414
1204.36	118.655
1205.35	119.69
1206.34	120.034
1207.33	120.724
1208.32	125.138
1209.31	122.586
1210.29	122.034
1211.28	129.483
1212.27	123.345
1213.26	129.207
1214.25	128.379
1215.23	128.793
1216.22	128.517
1217.21	131.345
1218.19	133.828
1219.18	136.655
1220.16	133.345
1221.15	134.793
1222.14	135.828
1223.12	136.241
1224.11	138.931
1225.09	137.69
1226.07	142.31
1227.06	142.103
1228.04	144.287
1229.03	140.006
1230.01	145.166
1230.99	144.914
1231.97	145.486
1232.96	145.111
1233.94	148.205
1234.92	148.676
1235.9	152.71
1236.88	153.994
1237.86	152.013
1238.84	152.415
1239.82	157.266
1240.8	154.191
1241.78	151.679
1242.76	157.547
1243.74	156.898
1244.72	156.528
1245.7	157.568
1246.68	158.809
1247.66	157.583
1248.63	157.098
1249.61	157.638
1250.59	156.267
1251.57	154.57
1252.54	156.208
1253.52	157.096
1254.49	157.501
1255.47	158.354
1256.45	156.951
1257.42	158.133
1258.4	159.118
1259.37	157.103
1260.34	155.306
1261.32	157.931
1262.29	157.602
1263.27	158.598
1264.24	158.05
1265.21	160.727
1266.19	159.341
1267.16	159.79
1268.13	157.063
1269.1	160.365
1270.07	157.309
1271.05	160.272
1272.02	159.985
1272.99	161.854
1273.96	161.062
1274.93	161.752
1275.9	165.902
1276.87	163.65
1277.84	165.875
1278.81	166.4
1279.78	164.945
1280.74	168.593
1281.71	167.895
1282.68	168.869
1283.65	168.762
1284.61	170.183
1285.58	173.187
1286.55	173.388
1287.52	175.268
1288.48	175.602
1289.45	176.68
1290.41	179.051
1291.38	178.927
1292.34	181.686
1293.31	184.939
1294.27	186.806
1295.24	185.486
1296.2	188.254
1297.17	190.695
1298.13	191.548
1299.09	190.37
1300.06	193.256
1301.02	193.357
1301.98	197.239
1302.94	197.757
1303.91	199.767
1304.87	199.563
1305.83	203.914
1306.79	201.415
1307.75	201.35
1308.71	206.124
1309.67	207.124
1310.63	207.841
1311.59	212.118
1312.55	214.429
1313.51	214.133
1314.47	214.96
1315.43	218.163
1316.38	220.244
1317.34	221.992
1318.3	222.619
1319.26	224.196
1320.21	225.327
1321.17	226.892
1322.13	228.69
1323.08	231.183
1324.04	232.663
1325	233.158
1325.95	235.034
1326.91	236.024
1327.86	238.408
1328.82	240.254
1329.58	241.414
1330.57	243.483
1331.56	247.552
1332.55	253.414
1333.54	252.241
1334.53	250.655
1335.52	252.172
1336.51	254.862
1337.5	254.793
1338.48	256.034
1339.47	253.828
1340.46	259.552
1341.45	262.793
1342.44	264.793
1343.42	263.965
1344.41	256.172
1345.4	263.345
1346.39	262.035
1347.37	266.724
1348.36	266.448
1349.34	267.138
1350.33	267.897
1351.32	266.931
1352.3	268.931
1353.29	266.586
1354.27	270.103
1355.26	276.724
1356.24	273.276
1357.22	270.241
1358.21	271.552
1359.19	273
1360.18	273.345
1361.16	276.655
1362.14	271.966
1363.12	272.103
1364.11	276.172
1365.09	277.345
1366.07	275.69
1367.05	274.172
1368.03	273.965
1369.02	274.724
1370	274.655
1370.98	277.828
1371.96	273.138
1372.94	276.31
1373.92	275.414
1374.9	272.241
1375.88	276.517
1376.86	271.483
1377.84	272.724
1378.82	273.345
1379.79	271.345
1380.77	275.759
1381.75	271.069
1382.73	269.828
1383.71	270.035
1384.68	266.241
1385.66	271.897
1386.64	270.172
1387.61	265.897
1388.59	269
1389.57	263.276
1390.54	264.172
1391.52	264.379
1392.49	266.517
1393.47	264.655
1394.44	265.138
1395.42	264.586
1396.39	265.207
1397.37	259.69
1398.34	258.931
1399.31	259.759
1400.29	259.552
1401.26	260.655
1402.23	256.862
1403.21	255.483
1404.18	253.414
1405.15	254.586
1406.12	251.207
1407.1	252.379
1408.07	252.724
1409.04	244.241
1410.01	249.965
1410.98	249.621
1411.95	247.207
1412.92	248.034
1413.89	242.31
1414.86	246.793
1415.83	243
1416.8	241.069
1417.77	243
1418.74	241.207
1419.71	239.483
1420.68	240.034
1421.64	242.931
1422.61	240.379
1423.58	236.379
1424.55	232.586
1425.52	233.207
1426.48	232.655
1427.45	235.897
1428.42	233.552
1429.38	232.035
1430.35	229.414
1431.31	234.172
1432.28	231
1433.24	233.138
1434.21	231.759
1435.17	227.966
1436.14	229.759
1437.1	230.586
1438.07	234.034
1439.03	233.552
1440	233.069
1440.96	236.172
1441.92	240.103
1442.88	238.034
1443.85	241.621
1444.81	243.138
1445.77	250.379
1446.73	251
1447.7	253.552
1448.66	258.448
1449.62	260.517
1450.58	267.759
1451.54	272.172
1452.5	277.69
1453.46	283.207
1454.42	286.31
1455.38	291.621
1456.34	291.966
1457.3	293.621
1458.26	296.586
1459.22	296.103
1460.18	295.414
1461.14	295
1462.09	292.31
1463.05	287.069
1464.01	287.828
1464.97	284.379
1465.92	284.517
1466.88	277.965
1467.84	274.655
1468.79	263.345
1469.75	264.517
1470.71	255.69
1471.66	252.517
1472.62	243.207
1473.57	237.207
1474.53	231.414
1475.48	225.207
1476.44	221.897
1477.39	218.724
1478.35	215.759
1479.3	213.414
1480.25	207.552
1481.21	199.552
1482.16	198.931
1483.11	198.793
1484.07	191.69
1485.02	183.897
1485.97	184.517
1486.92	180.724
1487.87	175.966
1488.82	175.414
1489.78	176.034
1490.73	175.207
1491.68	170.448
1492.63	169.828
1493.58	168.793
1494.53	171.69
1495.48	166.379
1496.43	167.759
1497.38	164.655
1498.33	162.931
1499.27	167.069
1500.22	164.793
1501.17	161.207
1502.12	159.483
1503.07	159.414
1504.02	158.655
1504.96	160.517
1505.91	160.931
1506.86	157.965
1507.8	156.241
1508.75	161.483
1509.7	157
1510.64	157.897
1511.59	157.069
1512.53	157.483
1513.48	157.414
1514.42	153.897
1515.37	154.862
1516.31	152.655
1517.26	156.655
1518.2	153.552
1519.15	150.655
1520.09	153.069
1521.03	155.069
1521.98	151.759
1522.92	152.517
1523.86	153.483
1524.8	154.862
1525.75	152.103
1526.69	152.517
1527.63	150.103
1528.57	147.966
1529.51	152.241
1530.45	150.103
1531.39	146.724
1532.33	149.621
1533.27	147.345
1534.21	145.759
1535.15	149.552
1536.09	148.034
1537.03	143.69
1537.97	145.483
1538.91	147.621
1539.85	147
1540.79	146.517
1541.73	140.31
1542.66	144.862
1543.6	141.276
1544.54	143.138
1545.48	144.655
1546.41	142.448
1547.35	144.931
1548.29	145.414
1549.22	145.966
1550.16	141.483
1551.09	141.345
1552.03	145.276
1552.96	141.414
1553.9	138.931
1554.83	145.069
1555.77	143.828
1556.7	140.103
1557.64	140.793
1558.57	140.793
1559.5	138.034
1560.44	138.586
1561.37	140.034
1562.3	140.379
1563.24	138.241
1564.17	139.621
1565.1	136.034
1566.03	135.621
1566.97	140.172
1567.9	134.448
1568.83	132.793
1569.76	137.759
1570.69	132.379
1571.62	132.724
1572.55	133.069
1573.48	136.517
1574.41	133.414
1575.34	135.828
1576.27	133.897
1577.2	131.828
1578.13	135.621
1579.06	133.483
1579.98	129.759
1580.91	132.172
1581.84	130.517
1582.77	130.103
1583.7	131.552
1584.62	132.517
1585.55	131.483
1586.48	128.931
1587.4	131.897
1588.33	130.862
1589.26	129.966
1590.18	128.448
1591.11	131.069
1592.03	129.483
1592.96	130.655
1593.88	126.793
1594.81	129.828
1595.73	130.655
1596.66	128.172
1597.58	127
1598.5	125.828
1599.43	128.655
1600.35	125.207
1601.27	126.103
1602.19	124.862
1603.12	125.552
1604.04	126.034
1604.96	125.345
1605.88	124.655
1606.8	128.31
1607.73	125.897
1608.65	123.414
1609.57	123.966
1610.49	121.069
1611.41	123.828
1612.33	122.655
1613.25	124.172
1614.17	122.103
1615.09	122.862
1616.01	119.759
1616.93	120.793
1617.84	122.103
1618.76	119.759
1619.68	121.345
1620.6	120.172
1621.52	120.517
1622.43	122.793
1623.35	119.621
1624.27	120.103
1625.19	117.552
1626.1	116.655
1627.02	115.828
1627.94	118.31
1628.85	113.207
1629.77	120.655
1630.68	114.517
1631.6	115.69
1632.51	115.345
1633.43	116.655
1634.34	113.759
1635.26	116.241
1636.17	112.586
1637.08	111.897
1638	112.724
1638.91	113.414
1639.82	110.931
1640.74	111.138
1641.65	112.862
1642.56	114.379
1643.47	112.241
1644.38	110.241
1645.3	109.759
1646.21	109.552
1647.12	109.138
1648.03	114.172
1648.94	107.621
1649.85	106.586
1650.76	110.724
1651.67	108.655
1652.58	108.31
1653.49	108.241
1654.4	106.379
1655.31	107.966
1656.22	107
1657.13	106.31
1658.03	104.172
1658.94	105.759
1659.85	107
1660.76	103.414
1661.67	103.828
1662.57	105.345
1663.48	105.414
1664.39	105.414
1665.29	99.9655
1666.2	101.483
1667.1	105.207
1668.01	102.793
1668.92	103.828
1669.82	99.8965
1670.73	100.862
1671.63	102.724
1672.54	103
1673.44	100.31
1674.34	103.621
1675.25	99.9655
1676.15	99.6897
1677.06	101
1677.96	102.31
1678.86	101.966
1679.76	98.6552
1680.67	99.9655
1681.57	99.4828
1682.47	99.2069
1683.37	97.9655
1684.27	97.8965
1685.18	99.8966
1686.08	96.6552
1686.98	97.8276
1687.88	96.5862
1688.78	95.9655
1689.68	94.931
1690.58	95.2758
1691.48	92.1724
1692.38	97.3448
1693.28	94.3793
1694.18	96.5862
1695.07	94.8621
1695.97	93.2069
1696.87	93.3448
1697.77	94.6552
1698.67	91.8965
1699.56	92.2414
1700.46	92.8621
1701.36	92.7241
1702.26	90.0345
1703.15	92.7241
1704.05	92.931
1704.95	92.7241
1705.84	90.5862
1706.74	91
1707.63	90.0345
1708.53	89.7586
1709.42	91.7586
1710.32	90.3103
1711.21	87.6207
1712.11	89.4138
1713	87.9655
1713.89	85.6896
1714.79	88.7242
1715.68	87.6207
1716.57	87.8276
1717.47	90.8621
1718.36	87.8276
1719.25	87.9655
1720.14	86.4483
1721.04	85.6897
1721.93	86.0345
1722.82	84.3103
1723.71	86.3793
1724.6	86.3103
1725.49	85.1379
1726.38	82.3103
1727.27	83.6897
1728.16	84.5172
1729.05	83.2759
1729.94	84.5172
1730.83	85.2759
1731.72	84.7931
1732.61	84.3793
1733.5	82.7241
1734.39	83.6897
1735.28	84.4483
1736.16	78.931
1737.05	81.3448
1737.94	83.4138
1738.83	79.2759
1739.71	81.6896
1740.6	81.6207
1741.49	81.6897
1742.37	81.069
1743.26	79.2759
1744.15	77.8966
1745.03	79.2759
1745.92	80.3793
1746.8	78.3103
1747.69	82.5172
1748.57	80.5172
1749.46	79.069
1750.34	77.4138
1751.23	79.2759
1752.11	79.1379
1752.99	80.7241
1753.88	77.4828
1754.76	75.6207
1755.64	78.0345
1756.52	79.8276
1757.41	78.2414
1758.29	77.7586
1759.17	79.2069
1760.05	79.8966
1760.93	77.069
1761.82	76.6552
1762.7	76.5172
1763.58	77.9655
1764.46	75.9655
1765.34	77
1766.22	74.2414
1767.1	79.2759
1767.98	75.8966
1768.86	76.8621
1769.74	75.2069
1770.62	75.069
1771.49	74.7931
1772.37	74.0345
1773.25	75.6897
1774.13	76.7931
1775.01	76.2414
1775.88	75.6897
1776.76	74.8621
1777.64	75.4138
1778.52	75.069
1779.39	75.8966
1780.27	73.4828
1781.14	77
1782.02	74.1034
1782.9	76.6552
1783.77	76.4483
1784.65	76.1724
1785.52	74.3793
1786.4	74.5172
1787.27	72.8621
1788.15	73.8276
1789.02	74.931
1789.89	73.3448
1790.77	72.3103
1791.64	74.5172
1792.51	74.0345
1793.39	74.1034
1794.26	75.3448
1795.13	74.931
1796	73.9655
1796.88	73.8966
1797.75	74.4483
1798.62	72.7241
1799.49	71.6207
