#Acq. time (s)=	1
#Accumulations=	30
#Range (cm-¹)=	200...1800
#Windows=	2
#Auto scanning=	Off
#Autofocus=	Off
#AutoExposure=	Off
#Spike filter=	Multiple accum.
#Delay time (s)=	0
#Binning=	1
#Readout mode=	Signal
#DeNoise=	Off
#ICS correction=	Off
#Dark correction=	Off
#Inst. Process=	Off
#Detector Gain=	Best Dynamic Range
#Detector ADC=	45 kHz       
#Detector temperature (°C)=	-60.16
#Instrument=	XploRA
#Detector=	Syncerity
#Objective=	x10
#Grating=	1200
#Filter=	100%
#Laser (nm)=	785
#Slit=	100
#Hole=	300
#StageXY=	Marzhauser
#StageZ=	Marzhauser
#X (µm)=	0
#Y (µm)=	0
#Z (µm)=	0
#Full time(mm:ss)=	1:16
#Project=	
#Sample=	
#Site=	
#Title=	0_5
#Remark=	
#Date=	28.06.2024 15:31
#Acquired=	28.06.2024 15:31:09
#AxisType[0]=Intens
#AxisUnit[0]=Cnt
#AxisType[1]=Spectr
#AxisUnit[1]=1/cm
200.052	128.931
201.312	130.517
202.571	132.862
203.83	134.31
205.088	131.552
206.346	130.241
207.604	131.828
208.862	135.552
210.119	135.828
211.376	133
212.633	138.103
213.889	135.552
215.145	130.931
216.401	137
217.656	137.897
218.91	138.724
220.166	137.138
221.42	137.345
222.674	134.724
223.928	133.897
225.182	143.276
226.434	138.862
227.687	138.241
228.94	137.345
230.191	138.379
231.444	139.69
232.695	138.517
233.946	138.655
235.197	137.966
236.447	140.862
237.698	138.586
238.948	142.517
240.198	137.483
241.447	139.414
242.695	142.172
243.944	139.552
245.193	143.069
246.441	142.103
247.688	144.655
248.936	144.586
250.182	146.034
251.43	146.31
252.676	147.207
253.922	147.69
255.167	150.517
256.413	147.965
257.658	148.103
258.903	147.483
260.147	148.241
261.392	142.448
262.636	147.276
263.879	145.552
265.122	145.414
266.365	145.207
267.608	145.483
268.85	146.931
270.092	144.034
271.334	144.034
272.575	143.138
273.816	145.276
275.057	143
276.297	143.621
277.538	144.862
278.777	138.724
280.016	139.966
281.256	141.897
282.494	145.69
283.733	143.345
284.971	141.621
286.209	146.241
287.447	141.345
288.684	139.621
289.921	143.345
291.157	142.035
292.394	143.345
293.63	144.172
294.865	143.345
296.1	144.586
297.335	140.793
298.57	139.276
299.804	140.31
301.038	143.828
302.271	144.241
303.506	145.69
304.739	142.379
305.971	146.103
307.204	140.724
308.436	140.862
309.668	140.035
310.899	139.828
312.13	137.759
313.361	138.034
314.592	135.414
315.822	136.379
317.051	137
318.282	138.379
319.511	135.69
320.74	135.414
321.968	135.276
323.196	135.483
324.425	136.517
325.652	133.345
326.88	133.69
328.107	134.448
329.333	135.759
330.56	133.621
331.786	131.965
333.012	133.621
334.238	134.31
335.463	131.345
336.688	132.862
337.913	132.31
339.137	131.966
340.361	133.897
341.584	132.035
342.807	129.69
344.031	129.276
345.254	133.138
346.475	128.931
347.698	128.655
348.919	130.448
350.14	130.379
351.361	129.828
352.583	133.069
353.803	132.379
355.023	130.241
356.243	131.483
357.462	128.724
358.682	128.034
359.901	131.138
361.119	130.172
362.337	132.31
363.555	132.931
364.773	134.103
365.99	138.655
367.207	138.724
368.424	138.724
369.64	139.483
370.856	144.31
372.072	141.552
373.288	143.828
374.503	149.069
375.717	154.241
376.932	155.483
378.146	161.345
379.36	163.552
380.574	165.138
381.787	166.793
382.999	163.897
384.212	165.759
385.424	164.379
386.636	165.69
387.848	164.172
389.06	168.655
390.271	164.793
391.481	165.69
392.692	161.207
393.902	159.828
395.112	158.241
396.322	159.828
397.531	159.207
398.739	158.379
399.948	162.655
401.156	163.759
402.364	165.483
403.571	163.552
404.779	163.483
405.986	167.69
407.192	163.138
408.399	168.172
409.605	165.828
410.81	168.379
412.016	167.965
413.222	165.69
414.426	165.138
415.63	162.379
416.834	162.379
418.038	155.414
419.242	156.034
420.445	151.759
421.648	149.621
422.85	150.448
424.053	148.241
425.255	144.379
426.457	147
427.658	146.517
428.859	144.241
430.06	143.276
431.26	143.828
432.461	142.172
433.66	144.724
434.86	146.931
436.058	142.586
437.258	146.448
438.456	151
439.654	140.931
440.853	143.414
442.05	143.965
443.247	145.345
444.444	142.034
445.64	143.276
446.837	147
448.033	143.069
449.229	142.655
450.424	141.966
451.619	141.345
452.815	142.655
454.009	143.069
455.203	141.138
456.397	141.483
457.59	139.483
458.784	141.069
459.977	143.965
461.169	142.655
462.361	139.828
463.554	144.241
464.745	149.69
465.936	146.793
467.128	152.655
468.318	155.345
469.509	159
470.699	166.241
471.889	165
473.078	175.483
474.268	178.724
475.456	178.034
476.645	186.655
477.833	189.69
479.021	190.448
480.209	192.586
481.396	190.655
482.583	191.69
483.77	190.724
484.956	189.621
486.142	192.862
487.328	187.621
488.514	185.345
489.699	183.897
490.884	184.034
492.068	177.965
493.253	176.172
494.436	175.897
495.62	170.31
496.803	168.655
497.986	168.724
499.169	166.379
500.351	167.552
501.534	170.31
502.715	168.724
503.897	174.172
505.078	174.172
506.259	175.138
507.439	181.138
508.619	180.862
509.8	184.862
510.98	188.655
512.158	186.448
513.337	190.931
514.516	194.655
515.695	198.034
516.872	206.31
518.05	209.621
519.227	218.655
520.405	225.828
521.582	225.69
522.758	225.828
523.934	229.345
525.11	227.759
526.286	218.172
527.461	207.759
528.636	200.379
529.811	184.655
530.985	179.414
532.159	173.621
533.333	167.276
534.506	157.345
535.679	151.138
536.852	151
538.024	141.276
539.197	143.138
540.369	140.517
541.541	135.759
542.711	133.828
543.883	131.276
545.053	137
546.223	132.172
547.394	133.069
548.564	128.931
549.733	129.483
550.902	128.448
552.071	125.966
553.239	125.207
554.407	124.655
555.576	124.172
556.743	121.207
557.91	123.828
559.077	121.828
560.244	121.138
561.41	117.69
562.576	117.483
563.742	116.793
564.907	117.552
566.073	115.828
567.237	116.172
568.402	113.69
569.566	114.793
570.73	114.241
571.893	112.379
573.057	112.586
574.219	112.034
575.382	112.724
576.545	112.103
577.707	108.655
578.868	109.69
580.03	110.448
581.191	108.379
582.352	107.966
583.512	110.034
584.673	110.517
585.833	110.793
586.992	106.31
588.151	106.931
589.311	108.034
590.469	106.793
591.627	106.655
592.786	107.138
593.943	104.931
595.101	108.103
596.258	106.034
597.414	108.034
598.571	105.207
599.727	103.483
600.883	106.379
602.039	105.759
603.194	106.379
604.349	106.31
605.504	105.483
606.658	108.931
607.812	105.621
608.966	109.207
610.12	106.724
611.273	109.069
612.426	108.793
613.578	108.31
614.731	112.034
615.882	115.069
617.034	114.448
618.185	114.931
619.337	112.793
620.487	114.241
621.637	111.138
622.787	105.828
623.937	107.207
625.087	106.724
626.236	107
627.385	108.793
628.533	112.448
629.682	105.828
630.83	110.448
631.977	107.552
633.125	109.276
634.272	106.448
635.419	104.517
636.565	105.276
637.711	108.793
638.857	109.207
640.003	104.724
641.148	107.552
642.293	109.759
643.437	105.966
644.582	109.621
645.725	107.345
646.869	106.517
648.013	107.552
649.156	106.448
650.299	110.448
651.442	109.69
652.583	112.586
653.726	109.828
654.867	111.69
656.008	113.483
657.149	110.724
658.29	113
659.43	112.586
660.57	114.517
661.71	114.379
662.85	113.966
663.989	111.966
665.128	115.966
666.266	116.034
667.404	112.586
668.542	114.448
669.68	116.724
670.817	119.345
671.954	117.759
673.091	117.138
674.227	117.897
675.364	116.034
676.499	116.172
677.635	115.552
678.77	113
679.905	114.241
681.039	112.172
682.174	109.828
683.308	114.172
684.442	113
685.575	108.793
686.708	110.241
687.841	112.586
688.974	108.103
690.106	106.241
691.237	105.138
692.369	106.586
693.5	103.69
694.631	108.241
695.762	107.345
696.892	104.862
698.023	99.7586
699.152	102.931
700.282	102.586
701.411	102.448
702.54	100.724
703.668	99.069
704.797	101.138
705.925	99.7586
707.052	100.241
708.18	99.1379
709.306	100.31
710.433	99.2759
711.56	95.5517
712.686	98.5862
713.811	99.7586
714.937	96.8621
716.062	96.2414
717.187	96.5172
718.312	95.4138
719.436	97.9655
720.561	95.9655
721.684	93.6207
722.807	96.3793
723.931	95.069
725.054	95.7586
726.176	93.7586
727.298	93.069
728.42	96.2414
729.542	98.0345
730.663	97.8965
731.784	93.1379
732.905	94.2414
734.025	93.5517
735.145	93.4828
736.265	93
737.384	95
738.504	94.931
739.623	92.931
740.741	95.7586
741.86	95.9655
742.977	94.931
744.096	93.069
745.213	89.6207
746.33	95.4138
747.447	93.8276
748.563	95.5517
749.679	95.2759
750.795	97.6897
751.911	97.6207
753.026	93.2069
754.141	94.931
755.256	98.1034
756.371	97.4828
757.485	97.4138
758.599	97.069
759.711	95.2069
760.825	97
761.938	95.2069
763.05	99.1379
764.163	100.655
765.275	97.5517
766.386	97.2069
767.498	100.931
768.609	101.621
769.72	100.724
770.831	102.103
771.94	103.966
773.051	103.276
774.16	101.276
775.269	107.69
776.379	103.207
777.487	105.897
778.596	109.069
779.704	107.276
780.811	106.586
781.919	107
783.026	110.724
784.133	107.276
785.239	114.517
786.346	111.138
787.452	112.31
788.558	114.448
789.663	117
790.768	118.655
791.873	122.586
792.978	125.414
794.081	131.345
795.185	140.655
796.289	146.172
797.393	158.586
798.496	173.621
799.598	186.31
800.701	200.172
801.802	209
802.905	219.621
804.006	220.517
805.107	216.655
806.208	211.621
807.309	200.793
808.409	193.552
809.509	178.655
810.609	173.414
811.709	164.586
812.807	159.69
813.907	159.69
815.005	156.931
816.104	159
817.201	159.828
818.299	159.828
819.396	160.31
820.494	161.483
821.59	161.345
822.687	159.138
823.783	164.103
824.879	162.034
825.974	166.379
827.069	173.759
828.164	177.483
829.259	194.862
830.353	208.724
831.448	231.207
832.542	252.448
833.635	281.069
834.729	314.862
835.821	347.345
836.914	381.345
838.006	406.034
839.098	414.103
840.19	429.138
841.281	423.759
842.372	404.034
843.463	387.138
844.553	372.586
845.643	347.69
846.734	323.483
847.824	296.655
848.913	276.379
850.001	257.345
851.09	238.862
852.179	224.31
853.267	212.31
854.355	196.793
855.443	193.345
856.53	177.621
857.617	175.138
858.703	162.793
859.79	156.034
860.876	155.069
861.961	149.552
863.047	149.138
864.132	145.138
865.217	141.276
866.301	135.759
867.386	132.655
868.47	132.862
869.554	129.69
870.637	131.069
871.72	127.207
872.803	126.931
873.886	128.793
874.968	124.379
876.05	126.172
877.132	123.621
878.213	123
879.294	121.414
880.375	122.034
881.455	122.724
882.535	114.724
883.615	113.621
884.694	113.69
885.774	109.759
886.853	103.483
887.932	107
889.01	104.379
890.089	101.966
891.166	101.897
892.243	103.276
893.321	100.103
894.398	100.379
895.474	102.034
896.551	103.897
897.627	105.483
898.702	106.172
899.778	106.586
900.853	109.345
901.928	110.172
903.002	111.138
904.077	112.655
905.151	114.448
906.224	111.483
907.298	116.241
908.37	123.759
909.444	120.517
910.516	125.621
911.589	130.655
912.66	134.862
913.732	139.414
914.803	143.069
915.874	147
916.945	151.621
918.015	156.724
919.086	159.621
920.155	161.966
921.225	163.552
922.294	168.724
923.363	165.966
924.432	166.103
925.5	166.241
926.569	163.138
927.636	157
928.704	155.621
929.771	148.448
930.838	146.931
931.904	142.586
932.971	136.517
934.037	132.931
935.103	125.414
936.168	125
937.233	120.517
938.298	117.828
939.362	116.241
940.427	113.207
941.491	113.414
942.554	113.552
943.618	107.069
944.681	108.31
945.744	114.379
946.807	107.069
947.869	109.069
948.931	108.862
949.992	105.552
951.054	105.897
952.115	101.897
953.176	98.5172
954.236	98.1724
955.296	92.4483
956.356	94.7931
957.416	93.3448
958.475	96.1724
959.534	91.3448
960.593	89.9655
961.651	92.7931
962.709	89.6897
963.767	90.5172
964.824	93.9655
965.881	93.5517
966.939	93.2069
967.996	97.069
969.052	93.4827
970.108	93.6207
971.164	98.4483
972.219	94.6552
973.275	97.8965
974.329	95.5517
975.384	101.621
976.438	99.069
977.492	102.517
978.546	99.069
979.6	97.1379
980.653	98.3103
981.706	101.759
982.758	100.586
983.811	104.034
984.863	103.138
985.914	108.793
986.966	106.793
988.017	110.586
989.068	114.931
990.119	116.448
991.169	116.379
992.219	111.966
993.268	110.586
994.318	109.69
995.367	108.448
996.416	109.207
997.464	108.586
998.513	109.276
999.56	122.241
1000.61	134.586
1001.66	155.276
1002.7	155.345
1003.75	146.724
1004.8	131.345
1005.84	111.621
1006.89	102.586
1007.93	100.586
1008.98	94.3103
1010.02	95
1011.07	93.6897
1012.11	94.0345
1013.16	97.8276
1014.2	98.2414
1015.25	97.2759
1016.29	101.414
1017.33	102.862
1018.37	100.793
1019.42	105.897
1020.46	106.655
1021.5	108.172
1022.54	113.276
1023.58	119.138
1024.62	120.724
1025.66	128.517
1026.71	132.793
1027.75	135.552
1028.79	139.207
1029.82	147
1030.86	150.035
1031.9	148.862
1032.94	156.724
1033.98	154.379
1035.02	153.69
1036.06	159.621
1037.09	163.276
1038.13	165.828
1039.17	168.655
1040.2	169.414
1041.24	173.966
1042.28	179.138
1043.31	184.793
1044.35	183.207
1045.38	188.241
1046.42	193.138
1047.45	195.621
1048.49	195.138
1049.52	194.862
1050.55	195.345
1051.59	194.931
1052.62	195.897
1053.65	192.517
1054.69	188.517
1055.72	185.138
1056.75	184.379
1057.78	183.345
1058.81	179.069
1059.85	179
1060.88	176.31
1061.91	179.207
1062.94	176.793
1063.97	178.655
1065	181.966
1066.03	175.759
1067.06	180.793
1068.08	179.966
1069.11	184.241
1070.14	183.621
1071.17	182.517
1072.2	185.345
1073.22	188.793
1074.25	193.897
1075.28	193.069
1076.31	194.586
1077.33	197
1078.36	201.897
1079.38	201.897
1080.41	199.138
1081.43	202.31
1082.46	204.862
1083.48	204.448
1084.51	199.138
1085.53	201.621
1086.55	193.759
1087.58	198.172
1088.6	196.034
1089.62	196.517
1090.65	192.586
1091.67	190.862
1092.69	188.241
1093.71	188.172
1094.73	184.379
1095.76	184.034
1096.78	181
1097.8	182.241
1098.82	178.034
1099.84	179.138
1100.86	177.759
1101.88	173.69
1102.89	177.138
1103.91	179.414
1104.93	180.586
1105.95	174.31
1106.97	174.034
1107.99	174.793
1109	176.931
1110.02	177.276
1111.04	175.759
1112.05	178.379
1113.07	174.448
1114.09	173
1115.1	171
1116.12	169
1117.13	170.862
1118.15	161.897
1119.16	159.069
1120.18	159.69
1121.19	160.379
1122.2	155.897
1123.22	156.172
1124.23	146.586
1125.24	148.931
1126.26	149.069
1127.27	148.517
1128.28	147.345
1129.29	149.276
1130.3	144.586
1131.31	150.724
1132.32	151.483
1133.34	151.552
1134.34	148.31
1135.36	153.414
1136.36	153
1137.37	151.828
1138.38	152.793
1139.39	154.448
1140.4	153.414
1141.41	153.207
1142.42	147.828
1143.42	149.828
1144.43	151.759
1145.44	146.793
1146.45	143.276
1147.45	140.103
1148.46	138.793
1149.46	138.517
1150.47	138.379
1151.48	135.897
1152.48	133.828
1153.49	131.552
1154.49	129.759
1155.49	128.655
1156.5	129.069
1157.5	126.172
1158.51	127.276
1159.51	129.621
1160.51	126.655
1161.51	127.621
1162.52	127.345
1163.52	127.69
1164.52	126.31
1165.52	129.552
1166.52	126.034
1167.52	124.172
1168.52	124.241
1169.52	127
1170.52	125
1171.52	129.276
1172.52	129.897
1173.52	130.31
1174.52	126.31
1175.52	130.172
1176.52	130.103
1177.52	127.69
1178.51	131.276
1179.51	132.793
1180.51	131.207
1181.51	130.655
1182.5	132.172
1183.5	136.241
1184.49	133.069
1185.49	131.483
1186.49	137.069
1187.48	137.138
1188.48	136.448
1189.47	132.862
1190.47	140.172
1191.46	141.069
1192.45	137.759
1193.45	140.862
1194.44	144.517
1195.43	139.828
1196.43	146.655
1197.42	144.724
1198.41	143.207
1199.4	145.552
1200.39	145.138
1201.38	147.897
1202.38	149.345
1203.37	152.517
1204.36	151.345
1205.35	147.069
1206.34	150.862
1207.33	154.241
1208.32	154.31
1209.31	155.138
1210.29	154.586
1211.28	153.345
1212.27	156.931
1213.26	156.931
1214.25	160.586
1215.23	160.862
1216.22	157.897
1217.21	162.31
1218.19	159.759
1219.18	160.586
1220.16	163.483
1221.15	169.828
1222.14	168.655
1223.12	166.517
1224.11	168.034
1225.09	165.207
1226.07	171.897
1227.06	173.897
1228.04	173.146
1229.03	174.67
1230.01	174.936
1230.99	175.772
1231.97	179.54
1232.96	177.514
1233.94	180.883
1234.92	181.699
1235.9	181.486
1236.88	182.225
1237.86	183.838
1238.84	182.84
1239.82	181.548
1240.8	181.868
1241.78	184.051
1242.76	185.291
1243.74	185.564
1244.72	183.476
1245.7	189.523
1246.68	186.898
1247.66	186.363
1248.63	189.082
1249.61	186.101
1250.59	186.03
1251.57	186.624
1252.54	186.348
1253.52	187.137
1254.49	186.38
1255.47	186.298
1256.45	186.868
1257.42	183.761
1258.4	185.298
1259.37	184.118
1260.34	185.184
1261.32	184.407
1262.29	187.477
1263.27	185.178
1264.24	184.803
1265.21	186.427
1266.19	187.117
1267.16	185.382
1268.13	183.779
1269.1	187.856
1270.07	187.169
1271.05	187.654
1272.02	186.163
1272.99	186.43
1273.96	188.004
1274.93	190.884
1275.9	189.36
1276.87	191.333
1277.84	191.291
1278.81	192.148
1279.78	194.402
1280.74	192.788
1281.71	194.438
1282.68	194.813
1283.65	194.054
1284.61	196.356
1285.58	196.027
1286.55	197.743
1287.52	200.124
1288.48	201.195
1289.45	202.083
1290.41	202.645
1291.38	204.417
1292.34	207.993
1293.31	206.271
1294.27	209.91
1295.24	211.436
1296.2	211.771
1297.17	214.82
1298.13	214.664
1299.09	216.891
1300.06	215.876
1301.02	219.246
1301.98	220.257
1302.94	222.764
1303.91	225.79
1304.87	224.541
1305.83	227.207
1306.79	225.816
1307.75	231.009
1308.71	229.267
1309.67	233.294
1310.63	233.913
1311.59	234.546
1312.55	235.425
1313.51	238.392
1314.47	237.876
1315.43	239.442
1316.38	240.925
1317.34	244.447
1318.3	247.194
1319.26	248.187
1320.21	248.934
1321.17	251.767
1322.13	253.539
1323.08	253.967
1324.04	256.925
1325	256.662
1325.95	257.076
1326.91	259.425
1327.86	261.599
1328.82	265.718
1329.58	263.69
1330.57	267.483
1331.56	268.793
1332.55	275
1333.54	277.276
1334.53	276.931
1335.52	280.172
1336.51	278.448
1337.5	277.69
1338.48	283.965
1339.47	282.379
1340.46	281.276
1341.45	285.966
1342.44	287.483
1343.42	284.862
1344.41	281.552
1345.4	292.034
1346.39	285
1347.37	288.517
1348.36	292.448
1349.34	293.138
1350.33	292.724
1351.32	296.724
1352.3	292.517
1353.29	297.621
1354.27	298.931
1355.26	293
1356.24	296.448
1357.22	297.897
1358.21	303.138
1359.19	294.517
1360.18	297.483
1361.16	299.552
1362.14	296.724
1363.12	299.897
1364.11	298.379
1365.09	300.172
1366.07	302.655
1367.05	302.379
1368.03	302.31
1369.02	300.448
1370	304.241
1370.98	304.172
1371.96	299.966
1372.94	301.966
1373.92	301.897
1374.9	304.655
1375.88	304.172
1376.86	299.207
1377.84	301.759
1378.82	300.448
1379.79	302.103
1380.77	302.172
1381.75	300.655
1382.73	297.069
1383.71	299.483
1384.68	300.655
1385.66	301.138
1386.64	292.793
1387.61	301.138
1388.59	295.69
1389.57	293.828
1390.54	297.552
1391.52	298.172
1392.49	295.966
1393.47	289.897
1394.44	293.621
1395.42	291.69
1396.39	288.931
1397.37	288.103
1398.34	284.172
1399.31	286.724
1400.29	284.034
1401.26	278.448
1402.23	278.724
1403.21	281.621
1404.18	282.655
1405.15	280.172
1406.12	277.897
1407.1	276.724
1408.07	278.655
1409.04	277.414
1410.01	276.793
1410.98	278.241
1411.95	272.517
1412.92	273.759
1413.89	266.172
1414.86	269.414
1415.83	265.276
1416.8	266.31
1417.77	265.759
1418.74	265.69
1419.71	260.655
1420.68	265.483
1421.64	264.862
1422.61	259.69
1423.58	259.069
1424.55	261.828
1425.52	259.69
1426.48	257.414
1427.45	256.517
1428.42	257
1429.38	259.345
1430.35	256.035
1431.31	259.276
1432.28	253
1433.24	257.207
1434.21	255.759
1435.17	257.276
1436.14	249.759
1437.1	258.241
1438.07	258.862
1439.03	255.069
1440	260.793
1440.96	260.379
1441.92	264.31
1442.88	265.345
1443.85	264.103
1444.81	266.655
1445.77	272.103
1446.73	273.759
1447.7	280.172
1448.66	281.897
1449.62	289
1450.58	294.034
1451.54	296.862
1452.5	303.276
1453.46	311.828
1454.42	315.621
1455.38	313.759
1456.34	315.965
1457.3	314.655
1458.26	320.241
1459.22	317.828
1460.18	320.034
1461.14	317.276
1462.09	317.69
1463.05	311.276
1464.01	309.897
1464.97	307.897
1465.92	306.586
1466.88	299.207
1467.84	290.862
1468.79	289.69
1469.75	279.069
1470.71	274.793
1471.66	269.966
1472.62	263.483
1473.57	260.517
1474.53	251.414
1475.48	247.345
1476.44	243.483
1477.39	235.276
1478.35	233.897
1479.3	230.241
1480.25	225.069
1481.21	221.552
1482.16	214.862
1483.11	212.31
1484.07	209.759
1485.02	207.965
1485.97	205.069
1486.92	202.862
1487.87	199.207
1488.82	199.276
1489.78	198.241
1490.73	195.414
1491.68	198.103
1492.63	197.966
1493.58	192.517
1494.53	194.517
1495.48	188.793
1496.43	189.69
1497.38	189.276
1498.33	183.69
1499.27	188.655
1500.22	184.172
1501.17	186.448
1502.12	185.345
1503.07	179.483
1504.02	183.828
1504.96	181.414
1505.91	184.448
1506.86	180.517
1507.8	181.828
1508.75	181
1509.7	181.828
1510.64	181.414
1511.59	179
1512.53	176.724
1513.48	177.828
1514.42	175.345
1515.37	176.931
1516.31	175.759
1517.26	172.931
1518.2	174.586
1519.15	172.655
1520.09	173.828
1521.03	175.621
1521.98	173.759
1522.92	174.586
1523.86	172.655
1524.8	173.138
1525.75	171.345
1526.69	170.103
1527.63	167.897
1528.57	170.379
1529.51	169.69
1530.45	170.241
1531.39	167.138
1532.33	165.552
1533.27	170.103
1534.21	166.586
1535.15	169.207
1536.09	168.517
1537.03	166.241
1537.97	167.345
1538.91	171.207
1539.85	168.931
1540.79	163.759
1541.73	161.897
1542.66	165.345
1543.6	168.931
1544.54	165.69
1545.48	165.207
1546.41	168.379
1547.35	165.138
1548.29	162.724
1549.22	159.621
1550.16	162.793
1551.09	163.138
1552.03	163.207
1552.96	162.241
1553.9	163.759
1554.83	163.69
1555.77	164.862
1556.7	160.724
1557.64	162.241
1558.57	160.931
1559.5	160.103
1560.44	161.966
1561.37	160.724
1562.3	162.448
1563.24	159.414
1564.17	159.138
1565.1	160.724
1566.03	161.207
1566.97	161.897
1567.9	159.276
1568.83	161
1569.76	159.207
1570.69	160.172
1571.62	157.069
1572.55	158.241
1573.48	159
1574.41	160.517
1575.34	152.586
1576.27	153.483
1577.2	157.138
1578.13	155.552
1579.06	153.069
1579.98	155.966
1580.91	154.517
1581.84	151.414
1582.77	154.448
1583.7	151.276
1584.62	154.862
1585.55	152.793
1586.48	151.621
1587.4	154.379
1588.33	151.759
1589.26	150.517
1590.18	152.241
1591.11	155.759
1592.03	155.138
1592.96	153.207
1593.88	151.621
1594.81	153.414
1595.73	149.276
1596.66	156.379
1597.58	159.414
1598.5	157.759
1599.43	163.276
1600.35	162.448
1601.27	163.966
1602.19	160.724
1603.12	160.655
1604.04	151.483
1604.96	151.414
1605.88	155.138
1606.8	146.379
1607.73	148.931
1608.65	151.069
1609.57	145.897
1610.49	146.103
1611.41	144.586
1612.33	144.724
1613.25	145.207
1614.17	139.759
1615.09	145.552
1616.01	148.517
1616.93	144.31
1617.84	143.207
1618.76	142.103
1619.68	139.828
1620.6	138.448
1621.52	138.448
1622.43	140.793
1623.35	139.552
1624.27	138.655
1625.19	136.931
1626.1	139.759
1627.02	138.172
1627.94	139.069
1628.85	139
1629.77	138.517
1630.68	135
1631.6	137.069
1632.51	134.034
1633.43	136.034
1634.34	132.931
1635.26	135
1636.17	133.759
1637.08	133.621
1638	136.448
1638.91	131.621
1639.82	132.655
1640.74	131.414
1641.65	130.103
1642.56	133.759
1643.47	133.069
1644.38	133.621
1645.3	132.31
1646.21	133.621
1647.12	132.517
1648.03	129.966
1648.94	131.414
1649.85	130.172
1650.76	127
1651.67	129
1652.58	131.345
1653.49	123.207
1654.4	127.966
1655.31	127.552
1656.22	127.276
1657.13	127
1658.03	124.172
1658.94	124.31
1659.85	122.931
1660.76	120.448
1661.67	122.172
1662.57	122.31
1663.48	125.138
1664.39	123.207
1665.29	121.759
1666.2	122.793
1667.1	121.552
1668.01	119.276
1668.92	123
1669.82	122.931
1670.73	117.207
1671.63	118.103
1672.54	119.69
1673.44	120.31
1674.34	117.828
1675.25	116.379
1676.15	117.069
1677.06	116.448
1677.96	118.103
1678.86	118.379
1679.76	116.172
1680.67	118.379
1681.57	114.379
1682.47	115.276
1683.37	115
1684.27	117.345
1685.18	113.69
1686.08	112.103
1686.98	112.793
1687.88	115.483
1688.78	111.759
1689.68	115.483
1690.58	115.138
1691.48	114.103
1692.38	113.345
1693.28	113.345
1694.18	112.586
1695.07	111.069
1695.97	111.276
1696.87	112.172
1697.77	109.552
1698.67	108.035
1699.56	111.759
1700.46	108.586
1701.36	109.897
1702.26	107.621
1703.15	109.483
1704.05	107.345
1704.95	109.828
1705.84	109.621
1706.74	108.655
1707.63	105.414
1708.53	109.414
1709.42	106.655
1710.32	108.586
1711.21	110.448
1712.11	108.172
1713	104.724
1713.89	102.793
1714.79	103.069
1715.68	106.241
1716.57	108.034
1717.47	102.862
1718.36	102.586
1719.25	105.828
1720.14	103.276
1721.04	99.8966
1721.93	100.379
1722.82	99.8966
1723.71	100.448
1724.6	102.31
1725.49	100.862
1726.38	100.241
1727.27	97.2069
1728.16	99.2069
1729.05	97.1379
1729.94	102.241
1730.83	96.4483
1731.72	95.6207
1732.61	98.6552
1733.5	97.1379
1734.39	96.5172
1735.28	99.8276
1736.16	96.5862
1737.05	97.9655
1737.94	97.8276
1738.83	96.8621
1739.71	94.8621
1740.6	97.1379
1741.49	97.8965
1742.37	95.7586
1743.26	94.1724
1744.15	94.8621
1745.03	95.6897
1745.92	97
1746.8	94.7931
1747.69	97.2069
1748.57	94.1724
1749.46	94.1724
1750.34	92.931
1751.23	94.8621
1752.11	95.7586
1752.99	93.3448
1753.88	91.8276
1754.76	92.5862
1755.64	93.6896
1756.52	91
1757.41	93.069
1758.29	92.1034
1759.17	89.4828
1760.05	90.5862
1760.93	91.3448
1761.82	91.5517
1762.7	89.3448
1763.58	89.9655
1764.46	91.069
1765.34	91.2069
1766.22	92.1724
1767.1	88.0345
1767.98	90.2414
1768.86	91.4828
1769.74	91.5517
1770.62	90.4483
1771.49	90.0345
1772.37	89.5517
1773.25	90.2414
1774.13	89.2759
1775.01	90.1034
1775.88	86.3793
1776.76	88.7931
1777.64	88.3793
1778.52	88.4483
1779.39	87.7586
1780.27	88.1034
1781.14	89.2759
1782.02	86.7241
1782.9	88.7931
1783.77	87.8276
1784.65	90.4483
1785.52	89.4828
1786.4	86.6552
1787.27	85.7586
1788.15	88.931
1789.02	86.7931
1789.89	88.7931
1790.77	86.0345
1791.64	87.9655
1792.51	89.5517
1793.39	88.0345
1794.26	86.7931
1795.13	87.2069
1796	86.7931
1796.88	86.931
1797.75	85.8966
1798.62	87.5517
1799.49	87.4138
